# nu(cm-1)        I    I_pol
     525.0  0.69248  0.69117
     525.5  0.69241  0.69108
     526.0  0.69234  0.69100
     526.5  0.69227  0.69091
     527.0  0.69221  0.69083
     527.5  0.69214  0.69074
     528.0  0.69207  0.69066
     528.5  0.69201  0.69057
     529.0  0.69194  0.69049
     529.5  0.69187  0.69040
     530.0  0.69181  0.69032
     530.5  0.69174  0.69023
     531.0  0.69168  0.69015
     531.5  0.69161  0.69007
     532.0  0.69155  0.68998
     532.5  0.69148  0.68990
     533.0  0.69142  0.68981
     533.5  0.69136  0.68973
     534.0  0.69129  0.68964
     534.5  0.69123  0.68956
     535.0  0.69117  0.68947
     535.5  0.69111  0.68939
     536.0  0.69105  0.68930
     536.5  0.69099  0.68922
     537.0  0.69093  0.68913
     537.5  0.69087  0.68905
     538.0  0.69081  0.68896
     538.5  0.69075  0.68888
     539.0  0.69070  0.68879
     539.5  0.69064  0.68871
     540.0  0.69058  0.68863
     540.5  0.69053  0.68854
     541.0  0.69047  0.68846
     541.5  0.69042  0.68837
     542.0  0.69036  0.68829
     542.5  0.69031  0.68820
     543.0  0.69026  0.68812
     543.5  0.69021  0.68803
     544.0  0.69016  0.68795
     544.5  0.69011  0.68786
     545.0  0.69006  0.68778
     545.5  0.69001  0.68769
     546.0  0.68996  0.68761
     546.5  0.68992  0.68752
     547.0  0.68987  0.68744
     547.5  0.68983  0.68736
     548.0  0.68978  0.68727
     548.5  0.68974  0.68719
     549.0  0.68970  0.68710
     549.5  0.68966  0.68702
     550.0  0.68962  0.68693
     550.5  0.68958  0.68685
     551.0  0.68954  0.68676
     551.5  0.68951  0.68668
     552.0  0.68947  0.68659
     552.5  0.68944  0.68651
     553.0  0.68941  0.68642
     553.5  0.68938  0.68634
     554.0  0.68935  0.68625
     554.5  0.68932  0.68617
     555.0  0.68930  0.68609
     555.5  0.68928  0.68600
     556.0  0.68925  0.68592
     556.5  0.68923  0.68583
     557.0  0.68921  0.68575
     557.5  0.68920  0.68566
     558.0  0.68918  0.68558
     558.5  0.68917  0.68549
     559.0  0.68916  0.68541
     559.5  0.68915  0.68532
     560.0  0.68915  0.68524
     560.5  0.68915  0.68515
     561.0  0.68915  0.68507
     561.5  0.68915  0.68498
     562.0  0.68915  0.68490
     562.5  0.68916  0.68482
     563.0  0.68917  0.68473
     563.5  0.68919  0.68465
     564.0  0.68921  0.68456
     564.5  0.68923  0.68448
     565.0  0.68925  0.68439
     565.5  0.68928  0.68431
     566.0  0.68931  0.68422
     566.5  0.68935  0.68414
     567.0  0.68939  0.68405
     567.5  0.68944  0.68397
     568.0  0.68949  0.68388
     568.5  0.68954  0.68380
     569.0  0.68960  0.68371
     569.5  0.68967  0.68363
     570.0  0.68974  0.68355
     570.5  0.68982  0.68346
     571.0  0.68990  0.68338
     571.5  0.68999  0.68329
     572.0  0.69009  0.68321
     572.5  0.69020  0.68312
     573.0  0.69031  0.68304
     573.5  0.69043  0.68295
     574.0  0.69056  0.68287
     574.5  0.69070  0.68278
     575.0  0.69085  0.68270
     575.5  0.69101  0.68261
     576.0  0.69119  0.68253
     576.5  0.69137  0.68244
     577.0  0.69156  0.68236
     577.5  0.69177  0.68227
     578.0  0.69200  0.68219
     578.5  0.69223  0.68211
     579.0  0.69249  0.68202
     579.5  0.69276  0.68194
     580.0  0.69305  0.68185
     580.5  0.69336  0.68177
     581.0  0.69370  0.68168
     581.5  0.69406  0.68160
     582.0  0.69444  0.68151
     582.5  0.69486  0.68143
     583.0  0.69531  0.68134
     583.5  0.69580  0.68126
     584.0  0.69632  0.68117
     584.5  0.69690  0.68109
     585.0  0.69753  0.68100
     585.5  0.69822  0.68092
     586.0  0.69898  0.68084
     586.5  0.69983  0.68075
     587.0  0.70076  0.68067
     587.5  0.70180  0.68058
     588.0  0.70296  0.68050
     588.5  0.70427  0.68041
     589.0  0.70573  0.68033
     589.5  0.70738  0.68024
     590.0  0.70924  0.68016
     590.5  0.71134  0.68007
     591.0  0.71371  0.67999
     591.5  0.71639  0.67990
     592.0  0.71941  0.67982
     592.5  0.72280  0.67973
     593.0  0.72662  0.67965
     593.5  0.73089  0.67957
     594.0  0.73567  0.67948
     594.5  0.74099  0.67940
     595.0  0.74689  0.67931
     595.5  0.75342  0.67923
     596.0  0.76059  0.67914
     596.5  0.76844  0.67906
     597.0  0.77699  0.67897
     597.5  0.78625  0.67889
     598.0  0.79623  0.67880
     598.5  0.80692  0.67872
     599.0  0.81829  0.67863
     599.5  0.83031  0.67855
     600.0  0.84293  0.67846
     600.5  0.85608  0.67838
     601.0  0.86966  0.67830
     601.5  0.88356  0.67821
     602.0  0.89764  0.67813
     602.5  0.91173  0.67804
     603.0  0.92564  0.67796
     603.5  0.93912  0.67787
     604.0  0.95191  0.67779
     604.5  0.96374  0.67770
     605.0  0.97429  0.67762
     605.5  0.98327  0.67753
     606.0  0.99038  0.67745
     606.5  0.99538  0.67736
     607.0  0.99808  0.67728
     607.5  0.99838  0.67719
     608.0  0.99625  0.67711
     608.5  0.99179  0.67703
     609.0  0.98514  0.67694
     609.5  0.97655  0.67686
     610.0  0.96629  0.67677
     610.5  0.95466  0.67669
     611.0  0.94196  0.67660
     611.5  0.92850  0.67652
     612.0  0.91453  0.67643
     612.5  0.90031  0.67635
     613.0  0.88604  0.67626
     613.5  0.87189  0.67618
     614.0  0.85803  0.67609
     614.5  0.84456  0.67601
     615.0  0.83160  0.67592
     615.5  0.81922  0.67584
     616.0  0.80747  0.67576
     616.5  0.79640  0.67567
     617.0  0.78603  0.67559
     617.5  0.77637  0.67550
     618.0  0.76743  0.67542
     618.5  0.75919  0.67533
     619.0  0.75164  0.67525
     619.5  0.74475  0.67516
     620.0  0.73848  0.67508
     620.5  0.73281  0.67499
     621.0  0.72770  0.67491
     621.5  0.72310  0.67482
     622.0  0.71898  0.67474
     622.5  0.71529  0.67465
     623.0  0.71199  0.67457
     623.5  0.70904  0.67448
     624.0  0.70641  0.67440
     624.5  0.70406  0.67432
     625.0  0.70196  0.67423
     625.5  0.70007  0.67415
     626.0  0.69838  0.67406
     626.5  0.69686  0.67398
     627.0  0.69549  0.67389
     627.5  0.69424  0.67381
     628.0  0.69311  0.67372
     628.5  0.69207  0.67364
     629.0  0.69111  0.67355
     629.5  0.69023  0.67347
     630.0  0.68941  0.67338
     630.5  0.68865  0.67330
     631.0  0.68794  0.67321
     631.5  0.68727  0.67313
     632.0  0.68664  0.67305
     632.5  0.68604  0.67296
     633.0  0.68548  0.67288
     633.5  0.68494  0.67279
     634.0  0.68443  0.67271
     634.5  0.68394  0.67262
     635.0  0.68348  0.67254
     635.5  0.68303  0.67245
     636.0  0.68260  0.67237
     636.5  0.68219  0.67228
     637.0  0.68179  0.67220
     637.5  0.68141  0.67211
     638.0  0.68104  0.67203
     638.5  0.68068  0.67194
     639.0  0.68034  0.67186
     639.5  0.68001  0.67178
     640.0  0.67968  0.67169
     640.5  0.67937  0.67161
     641.0  0.67907  0.67152
     641.5  0.67877  0.67144
     642.0  0.67849  0.67135
     642.5  0.67821  0.67127
     643.0  0.67794  0.67118
     643.5  0.67768  0.67110
     644.0  0.67742  0.67101
     644.5  0.67717  0.67093
     645.0  0.67693  0.67084
     645.5  0.67669  0.67076
     646.0  0.67646  0.67067
     646.5  0.67624  0.67059
     647.0  0.67601  0.67051
     647.5  0.67580  0.67042
     648.0  0.67559  0.67034
     648.5  0.67538  0.67025
     649.0  0.67518  0.67017
     649.5  0.67498  0.67008
     650.0  0.67478  0.67000
     650.5  0.67459  0.66991
     651.0  0.67440  0.66983
     651.5  0.67422  0.66974
     652.0  0.67404  0.66966
     652.5  0.67386  0.66957
     653.0  0.67368  0.66949
     653.5  0.67351  0.66940
     654.0  0.67334  0.66932
     654.5  0.67317  0.66924
     655.0  0.67301  0.66915
     655.5  0.67284  0.66907
     656.0  0.67268  0.66898
     656.5  0.67253  0.66890
     657.0  0.67237  0.66881
     657.5  0.67222  0.66873
     658.0  0.67206  0.66864
     658.5  0.67191  0.66856
     659.0  0.67177  0.66847
     659.5  0.67162  0.66839
     660.0  0.67148  0.66830
     660.5  0.67133  0.66822
     661.0  0.67119  0.66813
     661.5  0.67105  0.66805
     662.0  0.67091  0.66796
     662.5  0.67078  0.66788
     663.0  0.67064  0.66780
     663.5  0.67051  0.66771
     664.0  0.67037  0.66763
     664.5  0.67024  0.66754
     665.0  0.67011  0.66746
     665.5  0.66998  0.66737
     666.0  0.66985  0.66729
     666.5  0.66973  0.66720
     667.0  0.66960  0.66712
     667.5  0.66948  0.66703
     668.0  0.66935  0.66695
     668.5  0.66923  0.66686
     669.0  0.66911  0.66678
     669.5  0.66898  0.66669
     670.0  0.66886  0.66661
     670.5  0.66874  0.66653
     671.0  0.66863  0.66644
     671.5  0.66851  0.66636
     672.0  0.66839  0.66627
     672.5  0.66827  0.66619
     673.0  0.66816  0.66610
     673.5  0.66804  0.66602
     674.0  0.66793  0.66593
     674.5  0.66781  0.66585
     675.0  0.66770  0.66576
     675.5  0.66759  0.66568
     676.0  0.66748  0.66559
     676.5  0.66736  0.66551
     677.0  0.66725  0.66542
     677.5  0.66714  0.66534
     678.0  0.66703  0.66526
     678.5  0.66692  0.66517
     679.0  0.66682  0.66509
     679.5  0.66671  0.66500
     680.0  0.66660  0.66492
     680.5  0.66649  0.66483
     681.0  0.66638  0.66475
     681.5  0.66628  0.66466
     682.0  0.66617  0.66458
     682.5  0.66607  0.66449
     683.0  0.66596  0.66441
     683.5  0.66586  0.66432
     684.0  0.66575  0.66424
     684.5  0.66565  0.66415
     685.0  0.66554  0.66407
     685.5  0.66544  0.66399
     686.0  0.66534  0.66390
     686.5  0.66524  0.66382
     687.0  0.66513  0.66373
     687.5  0.66503  0.66365
     688.0  0.66493  0.66356
     688.5  0.66483  0.66348
     689.0  0.66473  0.66339
     689.5  0.66463  0.66331
     690.0  0.66453  0.66322
     690.5  0.66443  0.66314
     691.0  0.66433  0.66305
     691.5  0.66423  0.66297
     692.0  0.66413  0.66288
     692.5  0.66403  0.66280
     693.0  0.66393  0.66272
     693.5  0.66383  0.66263
     694.0  0.66373  0.66255
     694.5  0.66363  0.66246
     695.0  0.66354  0.66238
     695.5  0.66344  0.66229
     696.0  0.66334  0.66221
     696.5  0.66324  0.66212
     697.0  0.66315  0.66204
     697.5  0.66305  0.66195
     698.0  0.66295  0.66187
     698.5  0.66286  0.66178
     699.0  0.66276  0.66170
     699.5  0.66266  0.66161
     700.0  0.66257  0.66153
     700.5  0.66247  0.66144
     701.0  0.66238  0.66136
     701.5  0.66228  0.66128
     702.0  0.66219  0.66119
     702.5  0.66209  0.66111
     703.0  0.66200  0.66102
     703.5  0.66190  0.66094
     704.0  0.66181  0.66085
     704.5  0.66171  0.66077
     705.0  0.66162  0.66068
     705.5  0.66152  0.66060
     706.0  0.66143  0.66051
     706.5  0.66134  0.66043
     707.0  0.66124  0.66034
     707.5  0.66115  0.66026
     708.0  0.66106  0.66017
     708.5  0.66096  0.66009
     709.0  0.66087  0.66001
     709.5  0.66078  0.65992
     710.0  0.66068  0.65984
     710.5  0.66059  0.65975
     711.0  0.66050  0.65967
     711.5  0.66041  0.65958
     712.0  0.66031  0.65950
     712.5  0.66022  0.65941
     713.0  0.66013  0.65933
     713.5  0.66004  0.65924
     714.0  0.65994  0.65916
     714.5  0.65985  0.65907
     715.0  0.65976  0.65899
     715.5  0.65967  0.65890
     716.0  0.65958  0.65882
     716.5  0.65949  0.65874
     717.0  0.65939  0.65865
     717.5  0.65930  0.65857
     718.0  0.65921  0.65848
     718.5  0.65912  0.65840
     719.0  0.65903  0.65831
     719.5  0.65894  0.65823
     720.0  0.65885  0.65814
     720.5  0.65876  0.65806
     721.0  0.65867  0.65797
     721.5  0.65857  0.65789
     722.0  0.65848  0.65780
     722.5  0.65839  0.65772
     723.0  0.65830  0.65763
     723.5  0.65821  0.65755
     724.0  0.65812  0.65747
     724.5  0.65803  0.65738
     725.0  0.65794  0.65730
     725.5  0.65785  0.65721
     726.0  0.65776  0.65713
     726.5  0.65767  0.65704
     727.0  0.65758  0.65696
     727.5  0.65749  0.65687
     728.0  0.65740  0.65679
     728.5  0.65731  0.65670
     729.0  0.65722  0.65662
     729.5  0.65713  0.65653
     730.0  0.65704  0.65645
